Wavelength,background,modulation
380,2.83543277999e-06,7.31792570141e-07
381,4.98441749661e-06,8.91942660141e-07
382,3.95101704143e-06,5.15569421509e-07
383,7.43866294306e-06,6.13396231093e-06
384,4.67569911525e-06,3.00472458232e-06
385,4.59227534151e-06,6.21240456752e-06
386,8.38198013634e-06,9.97581706819e-06
387,7.69033624478e-06,4.28694852114e-06
388,8.90624702309e-06,2.63713806594e-06
389,1.06260820662e-05,1.11796400218e-05
390,9.24068695385e-06,1.12699445407e-05
391,1.25128140616e-05,6.05158898334e-06
392,1.45452296217e-05,6.58208796479e-06
393,1.36101214423e-05,7.84695594802e-06
394,1.74574726385e-05,6.75734659694e-06
395,2.27031618587e-05,7.91399966126e-06
396,3.07030237227e-05,7.37029722621e-06
397,2.99794484687e-05,1.0367008346e-05
398,4.38966057273e-05,1.29322992384e-05
399,5.48655855347e-05,2.06575057388e-05
400,6.70574681488e-05,2.28247544062e-05
401,7.46666097387e-05,2.63549551417e-05
402,9.67823875274e-05,2.98620583771e-05
403,0.000121111658644,4.11026353968e-05
404,0.000151001148659,5.11412293401e-05
405,0.000190943212646,6.41550831964e-05
406,0.000238216795084,7.96182765768e-05
407,0.000291951541587,9.62801039165e-05
408,0.000359231141334,0.000125511907944
409,0.000443900923866,0.000153735923321
410,0.000550763942315,0.000185797606153
411,0.000674107981321,0.000229383320787
412,0.00082454279103,0.000274396552992
413,0.0010156333577,0.000341537482671
414,0.00121280785074,0.000421512190315
415,0.00147025075042,0.000509593091233
416,0.00179520306144,0.000615367185017
417,0.00215489063324,0.000737070905437
418,0.00261732522136,0.000889646839347
419,0.00317301587652,0.00107785191214
420,0.00376445413158,0.0012908709378
421,0.00447025812147,0.00152634714826
422,0.00530902404794,0.00180097656278
423,0.00610584264494,0.00207184340695
424,0.00691403150938,0.002340049584
425,0.00764225234956,0.00256504876523
426,0.00817579628548,0.00275146522453
427,0.00845002791433,0.00284752304869
428,0.00849471702006,0.00284386381428
429,0.00829403702959,0.00276724860226
430,0.00762235693205,0.00254784981652
431,0.00689503716514,0.00230590189324
432,0.00607475714219,0.00203257624001
433,0.00526801362102,0.00176179359681
434,0.00453589012286,0.00151870878829
435,0.00395579079958,0.00133712571771
436,0.00351963172965,0.00118470239861
437,0.00319701204,0.00109106652886
438,0.00292216395291,0.000996373585117
439,0.00270618180745,0.000929430348325
440,0.0024934698244,0.000865788159754
441,0.00232841266503,0.000816509805635
442,0.00215462097925,0.000771170996206
443,0.00197796015709,0.000718474216678
444,0.00181716880572,0.000675790703449
445,0.001643110424,0.000631917391356
446,0.0015148495977,0.000600185646167
447,0.00142047022079,0.000583223998808
448,0.00134456334492,0.000583565862402
449,0.00130974853298,0.00059286307456
450,0.00131179236619,0.00062279175676
451,0.00134355972279,0.000667276445311
452,0.00139515161985,0.000734682040225
453,0.00145810868127,0.000802728091876
454,0.001539571229,0.000884712899403
455,0.00161630164984,0.00097500832806
456,0.00168685571114,0.00107329681566
457,0.00173413743783,0.00118418435846
458,0.00176106021731,0.00129569331693
459,0.00175269928603,0.00141717546277
460,0.00170841168265,0.00151786634647
461,0.00163515892488,0.00166134699071
462,0.00155484501134,0.00181468924519
463,0.00146596795901,0.00199499739741
464,0.00138536581701,0.00219016727033
465,0.00133189798514,0.00247335402232
466,0.00128368807648,0.00278545727312
467,0.00126832459004,0.00316682382072
468,0.00127685404243,0.00360351645754
469,0.0013010193523,0.00410477527898
470,0.00133451754208,0.00462618099402
471,0.00138849288087,0.00518550805888
472,0.00142751804669,0.00574788256815
473,0.00145604451811,0.00628589472373
474,0.0014880355465,0.00680520246612
475,0.00149776217719,0.0072465525588
476,0.00149132572201,0.00756586999159
477,0.00146052386686,0.00776816095808
478,0.00141538613003,0.00781506813584
479,0.00134389971372,0.00772479020025
480,0.00127199250805,0.00751461777968
481,0.00118797288595,0.00715521262495
482,0.0011106009818,0.00682903017412
483,0.00101923908776,0.00634260676674
484,0.000944071083127,0.00592009417545
485,0.000863736121717,0.00546303213241
486,0.000804781679321,0.00501231712828
487,0.000742951388714,0.00464661336391
488,0.000691528105563,0.00429489858696
489,0.000642595921133,0.00395149190503
490,0.000602998256431,0.0036954305213
491,0.000569062032455,0.00347870365289
492,0.000538214875796,0.00325992625845
493,0.000503822593815,0.00306337108759
494,0.000472831784431,0.00290631315393
495,0.000449915926958,0.00270118871612
496,0.000422533457992,0.00253800124644
497,0.000395927001257,0.00234659639215
498,0.000373116815269,0.00218239311563
499,0.000357994292962,0.00203403927569
500,0.000340507618751,0.00187459250109
501,0.000326481282621,0.00172534124098
502,0.000314584071513,0.00159923836951
503,0.000309615199029,0.00146681152911
504,0.000299085636859,0.00136507811622
505,0.000302724368688,0.00126499938186
506,0.000311203098542,0.00118847793235
507,0.000316463828662,0.00113507058759
508,0.000334742027968,0.00110784001364
509,0.000352053402544,0.00107657492591
510,0.000369545783016,0.00105287112098
511,0.000396902201668,0.00104062683596
512,0.000421529899328,0.00104256117098
513,0.000444998162642,0.00103413738114
514,0.000479189125186,0.00105253773697
515,0.00051833979085,0.00107049610395
516,0.000546314026932,0.00107376835463
517,0.000577727570921,0.00108769493145
518,0.000611076282783,0.00110779818442
519,0.000633606962764,0.00110940235848
520,0.000662256312426,0.00113018921207
521,0.000676788882297,0.00112857577541
522,0.000679522992009,0.00111909392067
523,0.000690059747228,0.00111204275357
524,0.000682881981119,0.0010937623231
525,0.000680795287179,0.00107245658985
526,0.000662243938658,0.00103536637822
527,0.0006451536409,0.00100392365405
528,0.000619304990642,0.000955291352736
529,0.000591496802532,0.000913188407535
530,0.000562451677589,0.0008659432755
531,0.000528697280642,0.000809754763793
532,0.000501025706793,0.000769453763364
533,0.000464637297157,0.000710370309743
534,0.000435896081249,0.00066469652916
535,0.000415199027945,0.000619833142696
536,0.000387598948121,0.000581271505681
537,0.000365483655384,0.000547399231475
538,0.000345120831815,0.000511498110038
539,0.000328822621304,0.000481909311101
540,0.000313886318923,0.000458048056791
541,0.00030412945314,0.000435459274202
542,0.000281718227176,0.000408347673727
543,0.000274352541511,0.000386928250709
544,0.00025883957873,0.00036442906603
545,0.000249539497622,0.000344208407033
546,0.000238346195924,0.000322634869698
547,0.000236316340835,0.000312796037637
548,0.000226035897366,0.000296600332694
549,0.000219863856201,0.000280530048785
550,0.000211375833748,0.000263697717278
551,0.000213751008099,0.000247238995579
552,0.000214213671771,0.000235779210137
553,0.000215058619821,0.000223865607614
554,0.000214507131385,0.00021385811951
555,0.000226190906627,0.000206166707685
556,0.000230950107877,0.000199141869776
557,0.000248566591052,0.000197099593604
558,0.000264320630567,0.00019930019462
559,0.000284282360462,0.000203569873687
560,0.000309721130629,0.00020653543681
561,0.000345912331412,0.000227612088484
562,0.000384464998411,0.000226391723992
563,0.000422103474747,0.000239598743766
564,0.00047136509357,0.000260288886163
565,0.000531782180373,0.000280202220148
566,0.000601373629756,0.000298864995725
567,0.000683894243874,0.000331415147988
568,0.00077781788472,0.000360774955593
569,0.000884017092727,0.000399733787038
570,0.00101181764798,0.000446312936108
571,0.00116682203911,0.000515532889858
572,0.00133160023285,0.000573655703196
573,0.00151971809688,0.000645115644035
574,0.00172731395323,0.000741548137382
575,0.0019887888847,0.000845624306038
576,0.0022789532552,0.000972372324753
577,0.00261059927268,0.00110292145677
578,0.00299803275259,0.00126328576463
579,0.0034402429832,0.00144832364834
580,0.00399795230707,0.00169026246929
581,0.00460374457105,0.00194022449725
582,0.00527318124715,0.0022237820615
583,0.00604102242181,0.00254559309156
584,0.00693310818826,0.00291381296661
585,0.00791951664912,0.00335383820308
586,0.00904712292942,0.0038379025994
587,0.0102490999169,0.00435029159539
588,0.0114416006737,0.00484972780349
589,0.0128262301917,0.00543592111378
590,0.0141276736235,0.00596937356505
591,0.0153108536212,0.00640783022217
592,0.0159142489845,0.00656748371479
593,0.0157176366782,0.0064645593822
594,0.0147228986349,0.00598993695579
595,0.0131436385842,0.00533721665806
596,0.01135099556,0.00461267598037
597,0.00935348683291,0.00387300456318
598,0.00760287599942,0.00324348489153
599,0.00615560789124,0.00277000320594
600,0.00502231525419,0.0024026677526
601,0.0041468176116,0.0021630594614
602,0.00343261619823,0.00197043290342
603,0.00281482669372,0.00183409689168
604,0.00232416943338,0.00174120171414
605,0.00192328722128,0.00171416652973
606,0.00160699815945,0.00174107764392
607,0.00133926162144,0.00180072830257
608,0.00114664885714,0.00191876415917
609,0.000991808427461,0.00207367379664
610,0.000885294973799,0.00226643910312
611,0.000816790633009,0.00256439427733
612,0.000785070613276,0.00286944436796
613,0.000774756920562,0.00324538229024
614,0.000784712774595,0.00365554838233
615,0.000810565296684,0.0041057193725
616,0.000814656586613,0.00463038154421
617,0.000892844441769,0.00519910290388
618,0.000949443574624,0.00581844169145
619,0.00102134485266,0.00647271866909
620,0.00108307230872,0.00717254500592
621,0.00117478813611,0.00789861879262
622,0.00130580100171,0.00883461613619
623,0.00141705788579,0.00980370488444
624,0.00156904392191,0.0110493782182
625,0.00174164792066,0.0124445507034
626,0.00191617494713,0.0137297199539
627,0.00206692338626,0.0151129510494
628,0.00219384383942,0.0160099722222
629,0.00224473421937,0.016390969009
630,0.00218196126523,0.0158087852077
631,0.00199343211517,0.0144049333941
632,0.00173385940903,0.0122204906281
633,0.00144836606228,0.00991585090949
634,0.00114543000967,0.00771938832894
635,0.000908430777036,0.00591831807864
636,0.000698876526291,0.00458248255934
637,0.000548181337285,0.00360110021174
638,0.000439864258314,0.00282987130342
639,0.000349865414377,0.00226339045714
640,0.000278477412287,0.00184454786471
641,0.000228594833325,0.00149467754965
642,0.000183966702927,0.00119352695199
643,0.000148923902369,0.000961226084644
644,0.000120954370117,0.000768346031802
645,9.89521135603e-05,0.000609444710711
646,8.34627748909e-05,0.000495054943098
647,6.80759386781e-05,0.000398967847697
648,5.55216898786e-05,0.000321748270561
649,4.38412348959e-05,0.000271457506713
650,3.50397772879e-05,0.000219950135051
651,3.02523974594e-05,0.000182111513456
652,2.42704384465e-05,0.000157455211979
653,2.35491764288e-05,0.000132868278581
654,2.32808317973e-05,0.000116604788687
655,1.78826364614e-05,0.000106270964184
656,1.56674008273e-05,9.15028066791e-05
657,1.3594586511e-05,7.6704484545e-05
658,1.31001081052e-05,6.73181724837e-05
659,1.01314571006e-05,5.98981020727e-05
660,8.81142499132e-06,5.02808092503e-05
661,5.77878632593e-06,3.88388005781e-05
662,5.72664651683e-06,4.41687005781e-05
663,4.80253500016e-06,3.31938874498e-05
664,6.7939030199e-06,2.31365254365e-05
665,4.94528518018e-06,2.40091967113e-05
666,3.16835260348e-06,2.23785536589e-05
667,3.30979568239e-06,2.25304672984e-05
668,3.15676883557e-06,1.34033320058e-05
669,4.55775649237e-06,9.85436791962e-06
670,5.42617240663e-06,1.07046912446e-05
671,5.96768901457e-06,1.01741223372e-05
672,2.55073343939e-06,5.38268664941e-06
673,3.2738373902e-06,1.09948156475e-05
674,2.26093518556e-06,8.62937512075e-06
675,1.31111431059e-06,5.11272257096e-06
676,2.04453871248e-07,7.68940891112e-06
677,5.65536707303e-06,1.86535609507e-06
678,2.206726859e-06,7.32477009715e-06
679,3.39029150561e-06,8.82181347943e-06
680,1.75411433685e-06,7.84137749149e-06
681,1.64053056484e-06,1.29919769223e-05
682,9.78264182651e-08,8.39601287316e-06
683,5.79196056836e-08,8.07178197084e-06
684,8.13434633834e-08,8.85279945741e-06
685,5.39817885271e-08,6.79725768872e-06
686,2.26769547088e-07,2.23045254996e-06
687,1.16207489757e-07,5.94853366185e-07
688,3.96351744778e-07,3.62769500826e-07
689,1.77392683597e-06,1.14828693837e-07
690,1.01160900332e-06,1.53164226756e-07
691,1.29660885948e-06,2.41563981797e-07
692,2.12404515972e-07,2.19570267114e-07
693,1.52451993856e-08,4.96040831868e-06
694,1.14769361941e-06,3.38744099206e-06
695,1.94698024721e-06,1.06696511225e-05
696,1.96875390525e-06,1.09888000604e-05
697,2.26671434452e-06,3.96374005109e-06
698,5.62573506882e-07,1.9110021724e-06
699,3.57063708275e-07,8.71289095707e-07
700,8.05516282772e-07,1.41550488292e-06
701,1.37280747689e-06,4.35962956027e-07
702,1.12865815166e-06,5.49470143681e-07
703,6.45310711211e-07,1.13049043147e-07
704,1.14410111909e-06,1.30628367095e-07
705,8.18443626275e-07,3.4796459044e-07
706,2.49070839752e-06,2.06931311446e-06
707,2.90204203362e-06,1.92376901684e-06
708,3.82508351591e-06,3.11296673337e-06
709,2.70092760963e-06,2.32264175278e-06
710,1.0923246692e-06,2.77160826506e-06
711,3.78080946839e-06,1.93940309212e-06
712,1.99021274151e-06,2.68466149278e-06
713,3.52878543863e-07,1.1947856523e-06
714,1.82559449341e-06,2.63880871962e-06
715,1.45813646748e-06,3.55935695394e-06
716,9.3110564744e-07,3.08592840667e-06
717,1.52190002076e-06,1.90335789685e-06
718,2.69933411052e-07,3.61623598011e-06
719,5.93021985656e-08,6.26773357666e-07
720,7.69182331421e-08,5.44723394401e-07
721,1.76906346639e-07,7.33689470832e-08
722,2.24120075951e-06,1.34804631521e-07
723,2.60328029189e-06,2.39816153861e-07
724,2.35646774264e-06,4.44637328142e-07
725,1.13997216554e-07,2.69933863014e-07
726,5.75736997768e-08,2.00130525003e-06
727,5.09915180091e-07,3.52550726177e-06
728,1.87099744661e-06,2.1348977886e-06
729,9.38535632628e-07,2.27929551308e-06
730,5.78230681941e-08,1.51545063866e-07
731,2.48175070414e-07,1.97510117057e-06
732,6.26719743795e-07,1.62719174776e-06
733,1.6622970085e-06,6.14388652907e-06
734,1.17624774509e-06,1.05395779535e-05
735,7.89692184548e-07,2.76896150579e-06
736,1.5729559346e-06,1.76261610767e-06
737,8.61924417918e-07,1.86548468401e-06
738,1.1665280195e-06,1.51300339112e-06
739,2.42950470107e-07,1.42231632046e-06
740,1.06107453051e-06,1.00767837219e-06
741,1.19471599082e-06,8.69482527055e-07
742,2.6483797705e-06,1.84900648902e-06
743,3.21047340295e-07,4.2647773667e-07
744,7.36303624386e-07,7.3051603437e-07
745,2.72418182584e-06,9.51501079882e-07
746,2.91838275096e-06,4.58326510654e-06
747,5.16601406355e-06,4.61980290845e-06
748,4.83866433966e-06,4.23647720235e-06
749,1.91267673953e-06,3.84347561918e-06
750,3.86311063358e-06,3.01401052036e-06
751,1.26840655946e-06,6.99692138751e-06
752,1.05340396386e-06,5.48684880323e-06
753,1.94024421427e-07,6.45779734556e-06
754,9.06836207057e-07,7.10516004755e-06
755,1.17002586926e-06,6.92824291994e-06
756,1.22332572854e-06,6.08305659902e-06
757,5.71274380262e-07,1.62493964229e-05
758,9.72224619358e-07,1.10127325623e-05
759,1.78932585657e-06,5.25559904825e-06
760,1.08755526401e-06,7.42571442371e-06
761,1.95371067611e-06,4.12885710723e-06
762,1.62731259075e-06,5.01049445731e-06
763,3.983406122e-06,5.25187317244e-06
764,4.48979874911e-06,5.22919688937e-06
765,2.72166547493e-06,6.17778013764e-06
766,3.39125747572e-06,1.09736190045e-05
767,5.60354453486e-06,9.57722110865e-06
768,4.18957253263e-06,1.65579135029e-05
769,3.47525676402e-06,1.47479452649e-05
770,1.10259398498e-05,1.78109346002e-05
771,1.38209575351e-05,1.2006201843e-05
772,1.39794675033e-05,6.90555904119e-06
773,8.90130986519e-06,1.28831318159e-05
774,9.77417819236e-06,2.57502160889e-05
775,1.21373172482e-05,3.34577677249e-05
776,1.6684524625e-05,2.55748185868e-05
777,1.3621078209e-05,1.5075263532e-05
778,1.39661834985e-05,1.85945385983e-05
779,2.42645785065e-05,1.89808841313e-05
780,2.70899708768e-05,4.15705179868e-05
