Wavelength,background,modulation
380,1.5470519353641911e-06,8.182254503860262e-08
381,7.1949926972176254e-06,2.1011540587618722e-07
382,2.462529084136935e-06,4.6368904963889764e-08
383,4.126723671508126e-06,2.9057624870917494e-07
384,3.5361371066047807e-06,3.560490961451493e-07
385,5.931956091259296e-06,1.3220501388702831e-07
386,2.56537344006602e-06,2.3720103631551186e-07
387,5.117722492997713e-06,2.10915259244125e-06
388,5.6230693453183096e-06,1.8823104837234203e-06
389,9.2248448175634e-06,4.057806517618465e-06
390,8.734226338117444e-06,2.1894191419439403e-06
391,8.785627523414841e-06,2.4468892147235964e-06
392,1.049351316742931e-05,2.2217998629965133e-06
393,8.405623664644698e-06,1.776555275171053e-06
394,1.2932116826568662e-05,2.3898347682738753e-06
395,1.809365551224255e-05,4.196480820703743e-06
396,1.9473299243693997e-05,4.536217465507102e-06
397,1.818149665464309e-05,6.731841997814891e-06
398,2.679068381194976e-05,7.5921611521274476e-06
399,3.636453164364898e-05,9.168760056787748e-06
400,3.8867311647932754e-05,9.588390441817231e-06
401,5.324017506365857e-05,1.243059719369494e-05
402,7.113894345041318e-05,1.5161738275249133e-05
403,9.144274310092698e-05,2.0453100226224857e-05
404,0.00011181451073762327,2.36485770924621e-05
405,0.00013670357014369808,2.9378982185818315e-05
406,0.00017366761182978246,3.867272001377115e-05
407,0.00020966286358860823,4.9499764227072265e-05
408,0.0002680838731967466,5.9479337424978506e-05
409,0.00032708816719475843,7.31325989722178e-05
410,0.0003995430287944482,9.178970293832629e-05
411,0.0004878586365330538,0.00011059739992433715
412,0.0006024346228844991,0.00013526196811337564
413,0.0007212809123599602,0.00016716281348511688
414,0.0008731626728056362,0.0002002869539981451
415,0.0010582990466204859,0.00023001396849901514
416,0.0012862570398404045,0.0002815032368323915
417,0.0015419725098837355,0.00033367733048223326
418,0.0018290128425232442,0.00039611046705072695
419,0.0022148542017975874,0.00048450151138688946
420,0.0026129517260893745,0.0005764011948833271
421,0.0030976349396753568,0.0006837218835362393
422,0.0036598241030131656,0.0008040714202535331
423,0.004219907738355515,0.0009149280742853238
424,0.0048004097254118385,0.0010372212887604228
425,0.00531529541685483,0.0011385123467571305
426,0.005701313765819368,0.001215101411592444
427,0.005951146068748881,0.0012640441659446527
428,0.006051422692536945,0.0012809297093680238
429,0.005973232437018196,0.001259400795421325
430,0.005518544952581319,0.0011706775042158964
431,0.005038581490663047,0.0010735865539830487
432,0.00449887996259178,0.0009644931830920381
433,0.003895618582227196,0.0008502179421261423
434,0.003365967433899225,0.0007418312528687264
435,0.0029312452378977426,0.0006636412830407853
436,0.002590714050681021,0.0006044107279197167
437,0.00234944120158972,0.0005611042445936805
438,0.0021347020128188393,0.0005337279847155534
439,0.0019549560696784244,0.0005187324548345971
440,0.0018087507353327147,0.0005069687135588963
441,0.0016777657059021014,0.0005012181759699969
442,0.0015566457652863774,0.0004983294756890197
443,0.0014264233847691636,0.0004965178846621754
444,0.0012970451715244794,0.0005102410733629565
445,0.0011735592529354372,0.0005240150330548155
446,0.001064489294410849,0.0005437178771579825
447,0.0009775171232111893,0.0005778128521881214
448,0.0009032113725311106,0.0006181521967435835
449,0.0008666766258688821,0.0006768100529036662
450,0.000843054744399239,0.0007520524033994856
451,0.0008384340518893272,0.0008425007023969154
452,0.0008560808760459175,0.0009439629835376738
453,0.000882858237983477,0.0010585712422099
454,0.0009276065323663336,0.0011912976517630149
455,0.0009646176293462975,0.001323473514865147
456,0.0009954783516107999,0.0014511116145724914
457,0.0010261786241925557,0.0015864966925720645
458,0.0010368262890319867,0.0016987819777130805
459,0.0010394063802498606,0.001799677729026233
460,0.0010096878020943996,0.0018852491035710535
461,0.000977515112306635,0.0019806314176317947
462,0.0009314263990235185,0.00206712158759552
463,0.0008821775214394003,0.0021752793046009695
464,0.00083523005785083,0.0023201278687858817
465,0.0007967081850557371,0.002489135714571535
466,0.0007656988545549787,0.0027220764360210343
467,0.0007461559373210422,0.0029836864821093847
468,0.0007456459869929397,0.0033142569261326907
469,0.000754915340083649,0.003675742767383002
470,0.0007706148681957084,0.004110456418655189
471,0.0007959050937502165,0.004577490367019042
472,0.0008201200716229734,0.005041806912411275
473,0.0008419847621724519,0.0054942908630675425
474,0.0008560473624787414,0.005966963200059119
475,0.0008637883243919228,0.00630571511543138
476,0.0008633225536277228,0.0065828133924391175
477,0.0008477772840975003,0.006757227299747735
478,0.000824424385181487,0.00681402270411701
479,0.0007866100141239895,0.006790553947878595
480,0.0007486845144060967,0.00661900451634818
481,0.0006951036556142807,0.006331519389888459
482,0.0006552519466811908,0.006038784520113582
483,0.0006075083545869299,0.005655877538088133
484,0.0005635409477025193,0.005279522657623926
485,0.0005197996308332711,0.0048778320127695575
486,0.0004780385421082781,0.004469514704271517
487,0.00044491483127825123,0.004142350322385136
488,0.00041635161361061384,0.0038215544986702284
489,0.0003972114372356054,0.00353347077396859
490,0.00036707688263356203,0.0032943596050890034
491,0.0003518832606894358,0.00308738772158472
492,0.00033620405360856084,0.002889456379641357
493,0.00032469325367921357,0.0027192190131027577
494,0.0003076621312537456,0.0025304742867955526
495,0.00029603388823646535,0.0023996970999317583
496,0.00028272538078341424,0.0022391358985423583
497,0.0002741341075417703,0.0020799091397873605
498,0.0002691612772732984,0.0019282156175073042
499,0.00026202368742964403,0.0017727573797597948
500,0.0002599695452456276,0.0016473638755431022
501,0.0002600546627060499,0.0015164698955026131
502,0.0002621416906224925,0.0013806735230796347
503,0.00027199483575627366,0.0012626765745873507
504,0.00028101980583773804,0.0011589383092035438
505,0.00028861435911246424,0.001073985973007529
506,0.00030895014567668795,0.0010061957777088896
507,0.00032968410344649986,0.0009423402522021468
508,0.00035553942215936095,0.000881686947350677
509,0.0003826038114292992,0.0008499628027529299
510,0.00041946413480993083,0.0008291835811655944
511,0.0004539532955163942,0.0007999194249609839
512,0.0004939701936089759,0.0007765258577168829
513,0.0005362113090346394,0.0007580336143427909
514,0.0005787778109025181,0.0007518522654470662
515,0.0006300863905649033,0.0007463872686783431
516,0.0006765514124191878,0.0007426391203490666
517,0.0007272401944194016,0.0007411559264343139
518,0.0007811004954076532,0.0007392358341097474
519,0.0008099351009291916,0.0007372724517012764
520,0.0008477582714887339,0.0007271401566444852
521,0.0008771816165481318,0.000717451714594197
522,0.0008939197455071125,0.0007090085277491417
523,0.0009175808861121383,0.0007062583717163439
524,0.0009159544321968193,0.0006784060011667864
525,0.0009161877557419008,0.0006652990278248855
526,0.0008979224031608952,0.0006422878444500579
527,0.0008767980159658729,0.0006172755926528768
528,0.0008483006621154444,0.0005901845512297821
529,0.0008121004170816223,0.0005571028225451732
530,0.0007755294996740032,0.0005307295495929574
531,0.0007348036337130499,0.000497812291611252
532,0.0006919487348237512,0.00046821493398082226
533,0.0006500623317906665,0.00044004494140212694
534,0.0006121495187284535,0.00041125297069600564
535,0.0005747643621946694,0.00038395646180027
536,0.0005378948735262055,0.00036079410278893475
537,0.0005013550844340471,0.00033358076702989364
538,0.0004759820505678847,0.0003117533465944672
539,0.0004548775604026367,0.0002953315027592124
540,0.0004319018132304584,0.0002810478999468041
541,0.00041076564704958037,0.00026422003595515234
542,0.000382554001704289,0.00025472155847259116
543,0.00036740287696992714,0.00023548610761091112
544,0.0003541976856347307,0.00022729249193338184
545,0.00034043388990889577,0.00021597267432498727
546,0.0003266576872740414,0.00020421280462953791
547,0.00031592305275132644,0.00019183206883829296
548,0.0003057077225432878,0.00018493026435655377
549,0.00028993016878336325,0.00017276798377589025
550,0.00027886956154388924,0.00016443394549905775
551,0.00027205083685546055,0.00015961899370048858
552,0.00027054205087636624,0.00015281678374502988
553,0.00026560385616523604,0.00015211583560229382
554,0.0002643348296565426,0.0001453884441532419
555,0.0002706510030685524,0.00014565364084487593
556,0.00026979041333487805,0.0001396149852730982
557,0.00027953427922140247,0.000143174824138877
558,0.00029357976503982324,0.00014712802916548945
559,0.0003120447997959001,0.0001518102577452058
560,0.0003320857028120046,0.00015610450662511025
561,0.00034584357714519793,0.00016541731177730117
562,0.00038764169535333945,0.00017826290535913854
563,0.0004309979239237695,0.00019100481258688335
564,0.0004673322874287035,0.0002141898668761723
565,0.0005207349343676178,0.00022821087366402544
566,0.0005869966397245198,0.000253443820404253
567,0.0006626943668678944,0.0002816789227878607
568,0.000737047062971335,0.0003120954748946186
569,0.0008313080451524793,0.0003453383094299498
570,0.0009424832456587273,0.0003951487020019655
571,0.0010760261671070449,0.0004415973555981453
572,0.0012275110605638657,0.0005077435187864526
573,0.0013871774034051503,0.0005748582518365394
574,0.0015856794561972744,0.0006518895291547856
575,0.0018104022545172602,0.0007471982674708474
576,0.002092137641559425,0.000861817177266165
577,0.0023640104139581656,0.0009778207672640421
578,0.0026867425575305168,0.0011112045464434022
579,0.003061216890249991,0.0012649511808110923
580,0.0035567380440621505,0.001461917190719716
581,0.004099187806005412,0.0016913839386135834
582,0.004679958999068291,0.0019392848310315848
583,0.005343389566407672,0.002222856276792544
584,0.0061307014268624765,0.002539276857497117
585,0.006979619866199393,0.00292662013806341
586,0.007972125435075118,0.0033363790656300405
587,0.009048566197992903,0.0037856564807760285
588,0.010087591568553508,0.004254004003007603
589,0.011367003983923813,0.0047677909369358475
590,0.0126364647781276,0.005302939149884925
591,0.01390439910551504,0.005813917527624533
592,0.014878703164993434,0.0061817194696609365
593,0.015236575986143157,0.006277756545608975
594,0.014865503551030924,0.00608574933581644
595,0.013898256229578201,0.005670948308141542
596,0.012427853803324715,0.005057005402480344
597,0.010577400176851551,0.00434492558030339
598,0.008717618059544418,0.003692081895437266
599,0.007059079273556797,0.0031328644070657014
600,0.005748463826468139,0.002685265358166352
601,0.004733658380599381,0.0023739116981311825
602,0.003897812001300473,0.002135670776638719
603,0.0032006935269057483,0.0019716793045116143
604,0.0026348431855672634,0.0018666183415316131
605,0.0021638460905026094,0.0018158994279518946
606,0.0017808582934996382,0.0018170680177879333
607,0.0014842697863883664,0.001864151300827131
608,0.0012330119133301199,0.0019284400908301208
609,0.001041142949384481,0.0020768294887676614
610,0.0008893793621868501,0.002258504236322322
611,0.0007755642576882789,0.002502262180414555
612,0.0007215916403521248,0.002796944698428868
613,0.0006754259693811512,0.0031467485346342145
614,0.0006542253922563314,0.0035189602645124417
615,0.0006378995312790027,0.0039645106632541375
616,0.0006440516384911822,0.004423721121446687
617,0.0006586584994638972,0.005008747762355862
618,0.0006964924318055497,0.00562787036832188
619,0.000733825627242108,0.006291500025551633
620,0.0007647291379316399,0.0069408289664931256
621,0.000822063431099563,0.0076725574818491
622,0.0008861436757619948,0.008486729063566447
623,0.0009393350745434966,0.009356785849014615
624,0.001025223908532411,0.010456124694333702
625,0.0011333943048569574,0.011726838777774513
626,0.0012392690705321362,0.013087341280889828
627,0.0013629780235849822,0.014530746011339383
628,0.0014533205149801756,0.01574127038472567
629,0.001524024111159035,0.016613342881589124
630,0.0015592816825349839,0.016867021004448784
631,0.0014894411349402129,0.016227674459047717
632,0.0013744703629250093,0.014696392521339438
633,0.0011979241856960642,0.012527867624625308
634,0.0009857523180596822,0.010095813797493022
635,0.0007936572880620919,0.007898684547847347
636,0.0006244312910614726,0.006125770721376954
637,0.0004924482048773416,0.004718517140625137
638,0.00038080252616585136,0.0037138493029432082
639,0.00030674123335314445,0.0029404778549969026
640,0.0002520113918062129,0.002369061834860376
641,0.00021047973400973905,0.0019116536850247218
642,0.0001720638668025895,0.0015545147202638031
643,0.00013782519588168246,0.001243608141256789
644,0.00011040363960804991,0.0009997804091327204
645,8.847482125202219e-05,0.0008111784074810129
646,7.023676332562768e-05,0.0006440412832586843
647,5.629864405109026e-05,0.0005175966595688742
648,4.833605657233735e-05,0.0004155911348790957
649,4.057168508542341e-05,0.00033714788639700646
650,3.2817729979864385e-05,0.0002845853283988547
651,2.5835670106544858e-05,0.0002283111614552951
652,2.3308027289356553e-05,0.0001860939833383649
653,2.1524677428807693e-05,0.00016302731526965093
654,2.0621214196047602e-05,0.00014542925885174988
655,1.667347233947156e-05,0.0001246782877675003
656,1.4827687736285895e-05,0.0001067470545200329
657,1.2391641202694632e-05,9.50626434344357e-05
658,1.0730910567350684e-05,8.896271675018292e-05
659,9.381664670780272e-06,6.924887520366712e-05
660,5.594050616657544e-06,6.081833908992184e-05
661,6.88140360205757e-06,5.1723206032776404e-05
662,8.061364185129722e-06,4.490551877952531e-05
663,7.50579850203116e-06,4.083593567634148e-05
664,9.214660571130858e-06,3.270343801353212e-05
665,8.773356033323365e-06,2.7514901376779563e-05
666,5.7068292373438e-06,2.481783390058464e-05
667,5.044684934177392e-06,2.0786899972022467e-05
668,1.110810812026359e-06,1.7175253708373833e-05
669,1.4065955220973218e-06,1.7064262493292847e-05
670,2.4817908536769583e-06,1.7142286450273264e-05
671,3.610150639567026e-06,1.0153949016390174e-05
672,3.983250246310694e-06,1.2678457467663719e-05
673,4.589284519986785e-06,8.198664023648524e-06
674,3.7484434082568224e-06,4.859667046031594e-06
675,4.468209353145915e-06,1.0570698389656397e-05
676,3.224036090497106e-06,1.0907245187759453e-05
677,3.5604130902448794e-06,2.3884658595707406e-06
678,2.4065247954385454e-06,5.535073826659083e-06
679,2.41546456967697e-06,4.3066099328381565e-06
680,2.974558319724235e-06,7.0870483508585496e-06
681,3.292908768406149e-06,3.311496629624345e-06
682,5.058354883211412e-07,7.354835983832494e-06
683,1.8229680586944852e-06,9.07138018607077e-06
684,1.754326955085236e-06,3.3064945203152534e-06
685,6.75243785474523e-07,7.923857208466065e-06
686,1.603251029389479e-06,5.598501100669505e-06
687,1.8329578120095568e-06,5.100295913977627e-06
688,2.900032371002165e-06,3.5662626701244507e-06
689,4.4351262803689483e-07,1.918630174763036e-07
690,8.012342448269183e-07,4.397941392493216e-08
691,3.939833859955834e-08,3.056182817494218e-07
692,4.327257951871213e-08,1.916114944387484e-07
693,2.889273075275665e-07,6.811888613779398e-07
694,3.0859562970575984e-07,5.186400779709759e-06
695,1.5846247154122853e-07,3.4109027122313504e-06
696,3.3285213776346064e-08,1.324209002482817e-06
697,9.039559418175593e-07,2.3089771016241646e-07
698,4.756872870407709e-07,4.848482068450143e-07
699,9.595220917229296e-07,1.857049708923269e-07
700,3.254382690070793e-06,2.1919966226164913e-07
701,1.0991174650834509e-06,2.868770393652398e-07
702,1.3833370240239274e-06,1.0372387890182526e-07
703,5.771930113208635e-07,3.577350220599279e-07
704,8.045546969921955e-07,2.2306172774504632e-07
705,1.5394629145663046e-06,7.123864217956087e-08
706,6.28343070052437e-06,3.602755417649529e-07
707,1.5422194815145288e-06,9.342708933133263e-08
708,8.941655069550584e-07,1.56381421309596e-07
709,1.7632258920285946e-06,6.493768816211071e-08
710,2.574136216172587e-06,1.9106945247400686e-07
711,2.1529002675392864e-06,1.0092168813664876e-07
712,1.3102603530446035e-06,1.3697888740661696e-08
713,1.8687880888506688e-06,1.011903907409627e-07
714,2.01487508690292e-07,1.1118167505405334e-07
715,2.6568142877294863e-06,3.418118069022688e-08
716,1.2886817185889335e-06,4.920164005407055e-08
717,1.2339378076834715e-06,1.7687265346046565e-07
718,4.905293462991622e-07,6.739526753931484e-07
719,1.2646805762445472e-07,5.270779593966367e-07
720,4.983746408363185e-07,1.1443109935592609e-06
721,2.685756734180273e-06,5.939468214443682e-07
722,4.764618296188429e-06,1.1349059667139862e-08
723,2.139617252659272e-06,3.3316033025314303e-07
724,1.1517764232895115e-06,4.8071921933744054e-08
725,1.4280147774777084e-06,1.1884488292105158e-07
726,3.2431529449092476e-06,8.953604761438095e-08
727,3.83529156353958e-06,2.0459383939308096e-08
728,4.269358116958358e-06,1.0595127528744001e-07
729,2.2341228690856035e-06,1.0723670405541748e-07
730,1.9698969286471262e-06,3.950398086396052e-07
731,6.771117425223874e-07,2.6843660958795546e-08
732,2.0291829801486963e-06,8.801223087146884e-08
733,4.4427687305331627e-07,6.161023646947824e-07
734,3.735264669297943e-08,7.130554088605873e-07
735,1.2026294346487643e-06,2.966832464899107e-07
736,2.0457503922354066e-06,1.6219617528296737e-06
737,1.786457413443709e-06,2.3464360832194516e-06
738,2.3823867500130057e-07,9.542214418570757e-08
739,1.2123173155733382e-07,3.6116304482814476e-07
740,3.018174455622046e-07,7.101289487653184e-08
741,1.2739606849226032e-06,2.3272329368771835e-07
742,1.9363070062361416e-06,1.8248293885849835e-07
743,1.9802971680701325e-08,1.058237156480141e-08
744,8.56093734392856e-07,1.7804926459230247e-08
745,2.880671566225232e-06,4.6979766892156914e-07
746,3.5285618341902083e-06,2.1694499716843155e-07
747,3.0058350177025295e-06,8.424653762433185e-07
748,4.189036385154316e-07,2.800839738623831e-07
749,3.2622629460138923e-06,6.390049942549283e-08
750,4.1335798357963786e-07,3.542329952692006e-07
751,1.992426842746928e-06,6.776590320796616e-07
752,4.486582526850168e-07,1.142016547749335e-06
753,1.906068405263469e-06,2.645383127447221e-06
754,5.270336715994249e-07,5.004403391495509e-07
755,3.969748404236676e-06,5.273336687917916e-07
756,2.181243876179007e-06,1.7247941852544167e-07
757,4.38181412888025e-07,5.189059182840651e-06
758,2.152099739841342e-06,1.505963041457578e-06
759,6.546609303991778e-06,1.056924771439744e-06
760,3.55703070994504e-06,2.7250419685880483e-06
761,6.561408846366212e-06,5.266971583171313e-06
762,9.554046202092244e-07,9.609485936098813e-07
763,2.9408407869243717e-07,8.206101076328011e-07
764,1.3132078419626914e-06,6.910271256348742e-07
765,1.0145163271882116e-06,2.0763641195666712e-07
766,6.232385863389097e-06,8.741715053755974e-07
767,6.296950645247132e-06,2.760883792229777e-06
768,9.472694013863228e-06,1.4172655135154879e-05
769,5.7763199971894615e-06,7.2203742676814425e-06
770,2.366144334489707e-06,4.085599380835953e-06
771,2.210087467998101e-06,9.373979464765163e-07
772,1.60181738915863e-06,3.5042299001826735e-07
773,2.0740072216777392e-06,3.8423217218417915e-06
774,3.7044678050602358e-06,3.231423585853526e-06
775,6.104370975871897e-06,5.8383688777474e-06
776,6.001897252622044e-06,1.6309950794629945e-06
777,1.5050101035710812e-06,4.512433555405073e-06
778,3.833756832180884e-06,2.3461774007262302e-06
779,6.210463608803066e-06,4.067395351427666e-06
780,6.572717947979224e-06,1.1751089224902012e-06
