Wavelength,background,modulation
380,1.4474333392417667e-06,8.745611456962791e-08
381,6.991378319349571e-06,2.0097268347955215e-07
382,2.499691974845976e-06,4.409173502941138e-08
383,3.959785118846408e-06,3.245056370121392e-07
384,3.473767162686967e-06,3.7680427999137736e-07
385,5.671851413513723e-06,1.3665202522879846e-07
386,2.665934732421534e-06,2.465864965337063e-07
387,5.228474693393556e-06,2.1937076604302437e-06
388,5.46344296670336e-06,1.931909873188158e-06
389,9.096917517783427e-06,4.222824997126507e-06
390,8.811835403257688e-06,2.2917539871761823e-06
391,9.003753857123888e-06,2.549728479845183e-06
392,1.0996293823113858e-05,2.299161390347897e-06
393,8.754080701944396e-06,1.8479657951807721e-06
394,1.2981781018605542e-05,2.4947035839605955e-06
395,1.7964600799240727e-05,4.377902122591382e-06
396,1.948502814946959e-05,4.706644806253693e-06
397,1.8292236557267976e-05,7.007736886768507e-06
398,2.6171877558979803e-05,7.840015934956652e-06
399,3.6215764445515296e-05,9.539691746599639e-06
400,3.866867248765205e-05,9.973904784064186e-06
401,5.310601568120348e-05,1.2905286523464506e-05
402,7.094412579433089e-05,1.5735814583361204e-05
403,9.1254428947574e-05,2.1271361418162952e-05
404,0.00011145299170838248,2.461187706751211e-05
405,0.0001362431111504436,3.054699198960255e-05
406,0.00017309170269214452,4.021166148828966e-05
407,0.00020895202571602142,5.1488160109929505e-05
408,0.000267044486616808,6.203160889422165e-05
409,0.0003259380834274371,7.605918939256042e-05
410,0.00039839560717905954,9.549684297227881e-05
411,0.00048669224228437897,0.00011483466517232228
412,0.0006008203048452856,0.00014042377500099907
413,0.0007195103416721638,0.00017335044690776835
414,0.0008711644625753706,0.0002079778653984425
415,0.0010556694391611326,0.00023938419771536576
416,0.001282940255862684,0.0002927564836917039
417,0.0015378263642533865,0.000347019687143087
418,0.0018250433483105294,0.00041197674015083574
419,0.002209389578174389,0.0005038570875705746
420,0.0026065025410097714,0.0005994112102820875
421,0.003089677952217922,0.000710910858403028
422,0.003650880672552036,0.0008361043335730929
423,0.004210477132041856,0.0009512101417572878
424,0.004787855255312892,0.0010783229742888632
425,0.005302212579219755,0.0011839480626668405
426,0.005687687934526554,0.0012636029053124758
427,0.005936688743920139,0.0013145052219938134
428,0.00603653311911995,0.001331678888132708
429,0.0059581890820086325,0.0013096028080218718
430,0.005505130087307119,0.0012167961390578625
431,0.005026508436147877,0.001116088548185235
432,0.004487764790103586,0.0010023910996420399
433,0.0038864884975724477,0.000883299797966691
434,0.003357651405720199,0.0007705109174988712
435,0.00292430704660554,0.0006889663543018835
436,0.0025843305290103556,0.0006272536273134283
437,0.0023433450608167173,0.0005822260113547906
438,0.0021289844242878223,0.0005534789255680627
439,0.0019502719847841112,0.0005371593381778908
440,0.001803917361608877,0.0005245464928320207
441,0.0016736762029799718,0.000517913638314591
442,0.0015523264006276462,0.0005145697147838685
443,0.001422230780207131,0.0005120587236985757
444,0.0012935331282861726,0.0005255242049684271
445,0.0011694855969382792,0.0005388065794399186
446,0.0010609248668156112,0.00055818432581539
447,0.0009740685749860516,0.0005921291644544453
448,0.0008999698931196527,0.0006329964075134638
449,0.0008631265780767481,0.0006922558262414182
450,0.0008395078639349945,0.0007690124503788797
451,0.0008344975489489928,0.0008601793430083948
452,0.0008516686463974696,0.0009635986075137512
453,0.0008779826801419261,0.0010802166057289062
454,0.0009222594208914913,0.0012149552976070859
455,0.0009588031079203488,0.0013486622319911444
456,0.000988967998686175,0.0014779151949733276
457,0.001018757490315078,0.0016145931712931688
458,0.0010282690142255013,0.0017275432659525126
459,0.0010295650865520495,0.0018283743037423067
460,0.0009983486822663595,0.0019126097141966085
461,0.0009645573558099427,0.002006431568679472
462,0.0009164219763720531,0.0020905851354253973
463,0.0008647372016013961,0.0021956158172059073
464,0.0008150210651882483,0.0023374540731852813
465,0.0007731841033899053,0.0025031721877091812
466,0.0007390990554037826,0.002732257507187756
467,0.0007156343588380409,0.002990473699910932
468,0.0007109013390367735,0.003318241931439344
469,0.0007154077964406307,0.003677702778689261
470,0.0007265695709488053,0.0041102123859377004
471,0.0007469058203387209,0.004574067835816037
472,0.0007663745158255467,0.005035980483935273
473,0.0007842258823459967,0.005486989684796334
474,0.0007944049939694123,0.005956333720604334
475,0.0007999412967595375,0.006293797688297328
476,0.0007973720115921668,0.0065694074773677774
477,0.0007810991129814815,0.00674172770837955
478,0.0007582197153495541,0.006797189933590517
479,0.0007222160870647854,0.00677223496141413
480,0.0006869597792927121,0.0066024907294451015
481,0.0006366113246731249,0.006313705022102222
482,0.0005995425754965754,0.006022315870185082
483,0.0005562095736954821,0.005640268312941033
484,0.0005160667665626847,0.005265272196338911
485,0.0004760189741016659,0.0048629542550773
486,0.0004377123005493794,0.004456721652218159
487,0.00040790060744342764,0.004129542019137933
488,0.0003822146641596742,0.0038096717306525425
489,0.0003654080719751922,0.0035241001485046873
490,0.0003377053583072329,0.0032835028602547656
491,0.00032449326402530794,0.0030774950428160835
492,0.0003105778488007882,0.002881078771480613
493,0.00030073394060798264,0.002710665757186309
494,0.0002861673760217929,0.00252328598247882
495,0.0002766237328698187,0.0023907980899593225
496,0.00026513610307478543,0.002230336839096587
497,0.00025817248223924076,0.0020716098656900594
498,0.00025521233385309284,0.0019206049378285045
499,0.000249568436312569,0.0017652015513323542
500,0.000249771668010691,0.0016391204524300559
501,0.00025145034588044366,0.0015083318043846417
502,0.00025553247442003195,0.0013730356337225342
503,0.00026704831433749,0.0012549911049962428
504,0.0002779968429437995,0.0011510595787251501
505,0.00028746515047486714,0.0010659511580564305
506,0.00030949517294107993,0.0009971750328918675
507,0.0003320439844896361,0.000932992813471925
508,0.00035945638276640166,0.0008719536830216014
509,0.00038850577120882795,0.0008394218483460236
510,0.0004268768216449841,0.0008172236494442835
511,0.00046376713343539714,0.0007871726395922145
512,0.0005063062524519875,0.0007628026174946188
513,0.0005503774867940758,0.0007430072110993633
514,0.0005957984768028782,0.0007356269040268423
515,0.0006492437282403058,0.0007288659428680045
516,0.000698490023036735,0.000723597102428972
517,0.0007522013031615239,0.0007209986486224662
518,0.0008088731662146269,0.0007176289850713392
519,0.0008390633711933888,0.0007146284944671047
520,0.0008800554471924218,0.0007038419640692932
521,0.0009111427144680701,0.0006934126335346485
522,0.0009298374980590896,0.0006841320758113769
523,0.0009545406035134082,0.0006806876919942293
524,0.0009539395058952315,0.000653329220633804
525,0.0009552056211621055,0.0006400118944541443
526,0.0009365966598920886,0.0006175639277787331
527,0.0009157839263458157,0.000593241795925222
528,0.0008852834875700023,0.0005668519426200029
529,0.0008475693954459856,0.0005349462785367589
530,0.0008101116257420125,0.0005094352558643498
531,0.000767623971248984,0.00047782454667860095
532,0.0007222612420962471,0.0004492065713653348
533,0.0006799249637066393,0.00042225924750351527
534,0.0006399305757271238,0.00039453722902654906
535,0.0006009024825040987,0.00036838243333900704
536,0.0005617047652687715,0.0003462569152667313
537,0.0005235919170007353,0.0003198822728327177
538,0.0004969908500729499,0.0002990704419663174
539,0.0004747683135354899,0.0002833229141446433
540,0.0004507145138368375,0.0002696214476957242
541,0.0004287580847313138,0.00025348834694025583
542,0.0003993559457315413,0.00024443717591080753
543,0.00038307994789521537,0.00022602201757502259
544,0.0003691823396894639,0.0002182073644766908
545,0.0003547430442439765,0.00020754388120894474
546,0.00034049601763739255,0.00019634824014888577
547,0.00032861375539678067,0.00018452416993700204
548,0.0003172145228985542,0.0001781041239568296
549,0.000301064407924964,0.0001663705795369371
550,0.00028926231904740154,0.00015868132267849656
551,0.00028182576179864845,0.0001540854561337813
552,0.00027943390580656435,0.0001478626678012231
553,0.00027355087568023287,0.00014739117608745096
554,0.00027198594877903866,0.00014120394176688316
555,0.00027820971397393723,0.00014203767756277577
556,0.0002766824693337705,0.00013647112228508046
557,0.00028604641053799214,0.00014004247829728646
558,0.00029953709411851935,0.00014407019501699983
559,0.0003174908501109485,0.00014920208683117568
560,0.0003377070658005594,0.00015383204636497126
561,0.0003507025110303281,0.00016318600658718398
562,0.00039220433557810567,0.00017662761809246239
563,0.0004361184089059793,0.00018974257818925818
564,0.000471690412583165,0.00021283770734913075
565,0.0005252073277032635,0.00022725634242636272
566,0.0005917162341415922,0.0002529694388096271
567,0.000667192522390548,0.00028130435712237346
568,0.0007407896337109375,0.0003120209182142376
569,0.0008360630060445979,0.000345909930758712
570,0.0009481510367641828,0.0003959613104824438
571,0.001080992854087947,0.00044284710253982197
572,0.0012326223513478285,0.0005096231465029677
573,0.001392666681761578,0.0005773096124703523
574,0.0015913478459275681,0.0006547159425368902
575,0.0018157486949186958,0.000751248006279975
576,0.002099278059097639,0.0008659824358370734
577,0.0023706367469197753,0.0009828729006490658
578,0.0026940807645453742,0.0011174772434083895
579,0.003069616147621641,0.0012715400076626464
580,0.0035651775156042907,0.0014706188603967956
581,0.0041106732901969424,0.0017015340341841507
582,0.004692383360387349,0.0019507898035813756
583,0.0053575345112436175,0.002236113581317119
584,0.006146960344071856,0.002554209029026618
585,0.006996362895656358,0.0029444613084010137
586,0.007992082882015028,0.003355949792677477
587,0.009070935366592772,0.003808000794972273
588,0.010111633211756831,0.004279062012508415
589,0.011394630175432406,0.0047946918236142005
590,0.012666816353249536,0.005335023828093958
591,0.013937615354420287,0.005847521666398129
592,0.014916543227489063,0.006218177603924883
593,0.015272643805339528,0.006315209993779179
594,0.014903181294536456,0.0061227254910788155
595,0.013929785221629375,0.005706218452015218
596,0.012457409961826867,0.00508792905207616
597,0.010600822811614369,0.00437079287935524
598,0.008736940014543995,0.0037138200595538224
599,0.007074450610080716,0.0031509385890413954
600,0.005761563674743972,0.002700065828937868
601,0.0047424307596745435,0.0023869332689489026
602,0.0039042604146875435,0.0021467761352973102
603,0.003204373045622382,0.001980524354403301
604,0.0026367524993692426,0.0018744918451525092
605,0.0021631302776886603,0.0018233383553829577
606,0.0017785927181749983,0.0018248207730625751
607,0.0014794236013961994,0.0018705015525805726
608,0.0012263573460045358,0.0019346521857783426
609,0.0010325503544740275,0.0020832069039775445
610,0.0008792302392682537,0.0022646475682471198
611,0.0007637706087131036,0.002509182958330715
612,0.0007074664377256099,0.00280554009743169
613,0.0006589032371946241,0.003155416442215407
614,0.0006348162349588834,0.0035283782740708662
615,0.0006159911718932056,0.003974870310446285
616,0.0006186435187547556,0.004434778132743662
617,0.0006300435927193848,0.005022425910660415
618,0.0006634088926485184,0.005643566452831972
619,0.0006970798026838917,0.006309187945386453
620,0.000722809572739059,0.006958411622238668
621,0.0007758195277884325,0.00769232668631682
622,0.0008353987547068009,0.008508773321999964
623,0.0008838112527762979,0.009381666087849499
624,0.000962794019213255,0.010480952681697405
625,0.0010632497936441567,0.011752839782890632
626,0.001162365480876817,0.013120734777020698
627,0.0012771592476587164,0.014569696993348263
628,0.0013612376914469398,0.015779513387493987
629,0.0014266596870849695,0.016653430575313613
630,0.0014589978683463005,0.016907459325626775
631,0.001394160913167022,0.01626676528585635
632,0.0012868307424371624,0.014733078306049767
633,0.001121044397272889,0.012558960099674915
634,0.0009226439213186174,0.010118514884499618
635,0.0007435417251609119,0.007917103851518954
636,0.0005849884839875725,0.006140212985722889
637,0.0004619575079758388,0.0047278704037492635
638,0.000356347062661772,0.003723641552303574
639,0.00028740471602295686,0.0029484496716469734
640,0.00023643382451388203,0.0023745000478840672
641,0.00019745263909147693,0.0019159189879368271
642,0.00016187717224529528,0.0015593315356975286
643,0.0001296448832005555,0.0012464326047798946
644,0.00010358119894278382,0.0010017441188164495
645,8.292512955437165e-05,0.0008125637671717181
646,6.545037973315874e-05,0.000645580415234964
647,5.27372751479833e-05,0.0005194181071555432
648,4.508643172171673e-05,0.0004168258862291334
649,3.770209029679598e-05,0.00033797995980549536
650,3.053776960084718e-05,0.00028581915565544934
651,2.4076170910159856e-05,0.00022993236037359072
652,2.1770820150672944e-05,0.00018669269144978013
653,2.0202024851373777e-05,0.00016351659519806805
654,1.907006199071997e-05,0.0001462027051735097
655,1.552810476683759e-05,0.00012536892660822154
656,1.3805663527411774e-05,0.0001068603111908723
657,1.1545936558270114e-05,9.530590649878894e-05
658,9.929831704336694e-06,8.974348633543308e-05
659,8.560464248189456e-06,6.97741056666337e-05
660,5.1238690119518e-06,6.139685215252265e-05
661,6.470722474608007e-06,5.199504744675643e-05
662,7.869957628229507e-06,4.507601644405389e-05
663,7.0574405987401176e-06,4.0943317193752e-05
664,8.503109652009589e-06,3.312492450514201e-05
665,8.046901947693284e-06,2.7824005720090583e-05
666,5.270518544609005e-06,2.493298777114793e-05
667,4.65009496423517e-06,2.1059531066490862e-05
668,1.0864728519991044e-06,1.7458936957319613e-05
669,1.3229792678895423e-06,1.7833477208139446e-05
670,2.2839937123214805e-06,1.7333555252943692e-05
671,3.291730600853555e-06,1.0238765634184952e-05
672,3.846691223241983e-06,1.2676222939490953e-05
673,4.178194487877761e-06,8.026142433893482e-06
674,3.571637984317501e-06,4.855565472397379e-06
675,4.1841403810148105e-06,1.0623936715493606e-05
676,3.086766464294467e-06,1.1037962329076523e-05
677,3.185453646397594e-06,2.5870802756666025e-06
678,2.24997649276245e-06,5.916077968082329e-06
679,2.3179354688980826e-06,4.49492107432131e-06
680,2.7209054010656595e-06,6.919663220534184e-06
681,3.31645099459356e-06,3.177725772838732e-06
682,5.942342130380023e-07,7.718512228120952e-06
683,1.831929581281022e-06,9.40210704704792e-06
684,1.9239727380458123e-06,3.537258699706967e-06
685,7.4600054635279e-07,8.452634379391508e-06
686,1.8314750183203597e-06,6.018087209697393e-06
687,1.8744798411998225e-06,5.120585943447276e-06
688,2.6898594530064273e-06,3.8077122122557805e-06
689,5.01832862040804e-07,2.0377848092991386e-07
690,1.031860009041691e-06,4.346605112267528e-08
691,3.732653836339312e-08,2.9776577427652637e-07
692,4.567092258664893e-08,1.763613794801762e-07
693,2.9040993037715887e-07,7.270580026157581e-07
694,2.878280798754773e-07,5.541862552143549e-06
695,1.5778327164345457e-07,3.675863014215991e-06
696,2.9728317186024974e-08,1.4384427414895524e-06
697,1.0392320461860268e-06,3.249768191374362e-07
698,5.763272793833896e-07,7.932338738312727e-07
699,1.0585679081807869e-06,2.386016585242878e-07
700,3.2254757579914185e-06,2.581768408869867e-07
701,1.2292287588212223e-06,3.213669205081455e-07
702,1.4199563481216399e-06,1.0866849666721839e-07
703,7.232333600572603e-07,3.386054524967342e-07
704,7.873984460157719e-07,2.311452431168692e-07
705,1.3830237690063753e-06,7.559971715654206e-08
706,5.920280447912546e-06,4.0475531741956823e-07
707,1.4991173656619323e-06,1.0807170791278678e-07
708,8.08228994070595e-07,1.6478654604134267e-07
709,1.4038413833677731e-06,6.701209350410905e-08
710,2.3480781231002476e-06,1.951562979361365e-07
711,1.930301424953104e-06,9.183406092481827e-08
712,1.274088347133729e-06,1.4247031518630042e-08
713,1.9056812563848774e-06,1.0755823504578575e-07
714,1.7732307847118698e-07,1.1565126331982602e-07
715,2.5166403521788027e-06,3.974984364093905e-08
716,1.0349916741890708e-06,5.21172002456729e-08
717,9.904081027661816e-07,1.9025321067144913e-07
718,3.8226500980477373e-07,7.399155287743934e-07
719,1.2707191351516442e-07,5.785035211512485e-07
720,4.205555167381369e-07,1.2198720460828337e-06
721,2.3788677527725103e-06,6.252103757747054e-07
722,4.372067461920856e-06,1.2180909317480948e-08
723,2.0638468092339877e-06,3.5043836374433814e-07
724,1.378442075974691e-06,4.952455525072765e-08
725,1.3643038944398762e-06,1.1314540722922496e-07
726,3.1200071748955347e-06,9.014478451709087e-08
727,3.656616484232413e-06,2.511628082640227e-08
728,4.3061123231497165e-06,1.1850950128828914e-07
729,2.1305801742568423e-06,1.1515532477720502e-07
730,1.9274587750261088e-06,4.1752990965647393e-07
731,6.6235550970098e-07,2.7919812388321706e-08
732,2.017024537636901e-06,8.070583788665703e-08
733,4.6089399809624803e-07,6.377288666538139e-07
734,3.506646664080491e-08,7.240158938263947e-07
735,9.795993720609675e-07,3.113833005704452e-07
736,1.8506531811106138e-06,1.675558752294238e-06
737,1.7304828916462242e-06,2.401719453159905e-06
738,2.4360028348725026e-07,1.0159399705682436e-07
739,1.4470591336928956e-07,3.349481231305559e-07
740,2.7026069649207275e-07,7.315875659546374e-08
741,1.0138601265081881e-06,2.4371934493476885e-07
742,1.499774373684318e-06,1.7373155597491214e-07
743,2.21815419200788e-08,1.1006614528707068e-08
744,8.350824074452186e-07,1.8518718705791555e-08
745,2.8693402736523438e-06,4.611993140359205e-07
746,3.4306618850259367e-06,1.937039005386194e-07
747,2.9178705661009432e-06,7.304505736382419e-07
748,4.0674574065890494e-07,2.554223931230768e-07
749,3.172145466326673e-06,5.832782122182902e-08
750,3.8662712950780073e-07,3.711845047301555e-07
751,1.932952849652484e-06,6.24405097016501e-07
752,4.5100931385617345e-07,1.0953401626366595e-06
753,1.5848728154568775e-06,2.533109947435609e-06
754,4.5878067849897806e-07,4.825724378439987e-07
755,3.5228854357100452e-06,5.199838010104759e-07
756,2.0381066363259535e-06,1.5738306121911692e-07
757,4.2816609452771515e-07,5.786983310923893e-06
758,2.0040509358958547e-06,1.8173397711894301e-06
759,6.009631362374933e-06,1.3514484558712644e-06
760,3.2915237084019194e-06,2.96687825623675e-06
761,6.173402635469785e-06,5.647549341155305e-06
762,8.215197758872865e-07,1.0204926546741955e-06
763,2.43172624635822e-07,8.632525615362089e-07
764,1.11581079433225e-06,7.295769801794648e-07
765,1.1464534580287291e-06,1.8407912406216048e-07
766,6.069320826578797e-06,9.41886639111337e-07
767,5.6074023428044705e-06,3.0732357292542987e-06
768,8.3197044865806e-06,1.5153483555785703e-05
769,5.835051308095744e-06,7.630610445251383e-06
770,2.1396519966236847e-06,4.317814967465638e-06
771,1.8413012402169759e-06,9.746105265039279e-07
772,1.9467187100305582e-06,2.768812871309471e-07
773,1.704114908979717e-06,4.1722376388979845e-06
774,3.3609120983225683e-06,3.4357481907674183e-06
775,6.076584105621884e-06,6.166812262994267e-06
776,5.9498415226953936e-06,1.6486267141225916e-06
777,1.4223199762186926e-06,4.309592906275799e-06
778,3.894627616686813e-06,2.3848799840139384e-06
779,6.513984991084249e-06,4.26237264797372e-06
780,6.562193817484664e-06,1.610401139917922e-06
